# dimensionless total [l(l+1)/2pi] C_l's
# for l=2 to 3500, i.e. number of multipoles equal to 3499
#
# -> if you prefer output in CAMB/HealPix/LensPix units/order, set 'format' to 'camb' in input file
# -> if you don't want to see such a header, set 'headers' to 'no' in input file
# -> for CMB lensing (phi), these are C_l^phi-phi for the lensing potential.
#    Remember the conversion factors:
#    C_l^dd (deflection) = l(l+1) C_l^phi-phi
#    C_l^gg (shear/convergence) = 1/4 (l(l+1))^2 C_l^phi-phi
#
# 1:l     2:TT                     3:EE                     4:TE                     5:BB                     6:phiphi                 7:TPhi                   8:Ephi               
    2       1.366940375804e-10       4.151962624806e-15       3.524068912174e-13       0.000000000000e+00       8.356940929370e-09       4.474437551701e-10      -1.831042331813e-12 
    3       1.294719024654e-10       5.337340434406e-15       3.954632741856e-13       0.000000000000e+00       5.077442680251e-09       3.160628834502e-10      -1.390087008332e-12 
    4       1.226206099286e-10       4.635731171347e-15       3.705388437710e-13       0.000000000000e+00       3.508656896939e-09       2.388844634552e-10      -9.123354120243e-13 
    5       1.175130796066e-10       3.102525154149e-15       3.155955313348e-13       0.000000000000e+00       2.606528964141e-09       1.883918905204e-10      -5.081062538759e-13 
    6       1.140078961238e-10       1.738819054395e-15       2.543119475729e-13       0.000000000000e+00       2.028630136459e-09       1.530595428522e-10      -2.095826836956e-13 
    7       1.117580084433e-10       9.383129946996e-16       1.997399719427e-13       0.000000000000e+00       1.631565032382e-09       1.271875382259e-10      -1.849110165730e-14 
    8       1.104539547420e-10       6.022213366623e-16       1.576892753847e-13       0.000000000000e+00       1.344777266899e-09       1.076107337803e-10       7.965708787038e-14 
    9       1.098539042080e-10       4.819204432012e-16       1.294876908633e-13       0.000000000000e+00       1.129714839273e-09       9.241191806450e-11       1.077705301331e-13 
   10       1.097816740805e-10       4.108880559269e-16       1.138056140958e-13       0.000000000000e+00       9.636420340222e-10       8.035412749490e-11       9.140071567850e-14 
   11       1.101069596599e-10       3.454929114677e-16       1.079944915882e-13       0.000000000000e+00       8.275622507101e-10       7.139505738065e-11       5.447380738950e-14 
   12       1.107413141337e-10       3.006604796360e-16       1.090682962211e-13       0.000000000000e+00       7.229758614942e-10       6.321643253179e-11       1.472129574944e-14 
   13       1.116157298923e-10       2.878238428581e-16       1.143421893291e-13       0.000000000000e+00       6.371301878315e-10       5.639728448874e-11      -1.609604989512e-14 
   14       1.126852315211e-10       2.994462432246e-16       1.217608165464e-13       0.000000000000e+00       5.657180666052e-10       5.063237339781e-11      -3.307093735660e-14 
   15       1.139127691794e-10       3.236985846291e-16       1.299897963390e-13       0.000000000000e+00       5.056209914679e-10       4.569874081922e-11      -3.664312200512e-14 
   16       1.152746114766e-10       3.577702942631e-16       1.383589942321e-13       0.000000000000e+00       4.545320577632e-10       4.144519983789e-11      -3.060393625648e-14 
   17       1.167502481993e-10       4.069763272468e-16       1.467075360198e-13       0.000000000000e+00       4.107120471764e-10       3.774837357062e-11      -2.005237997191e-14 
   18       1.183213729723e-10       4.767478811492e-16       1.551843115219e-13       0.000000000000e+00       3.728279598523e-10       3.451942831187e-11      -9.650435526059e-15 
   19       1.199778079277e-10       5.681046249553e-16       1.640294835774e-13       0.000000000000e+00       3.398430136497e-10       3.168572774789e-11      -2.560742516216e-15 
   20       1.217046528425e-10       6.791750828551e-16       1.734072166887e-13       0.000000000000e+00       3.109401521168e-10       2.918446543886e-11      -6.638047085598e-17 
   21       1.234993708438e-10       8.085133694622e-16       1.833073022949e-13       0.000000000000e+00       2.854678474368e-10       2.697410179838e-11      -1.723973484155e-15 
   22       1.253509104098e-10       9.561975501498e-16       1.935284689911e-13       0.000000000000e+00       2.629010249118e-10       2.500851192799e-11      -6.000731296611e-15 
   23       1.272543467242e-10       1.122704511822e-15       2.037441008920e-13       0.000000000000e+00       2.428124442284e-10       2.324758519293e-11      -1.098078524501e-14 
   24       1.292076447459e-10       1.307897615914e-15       2.135765162807e-13       0.000000000000e+00       2.248513979896e-10       2.165982196898e-11      -1.501178847391e-14 
   25       1.312039947732e-10       1.511444730192e-15       2.226926969077e-13       0.000000000000e+00       2.087276247204e-10       2.022457475867e-11      -1.710158033264e-14 
   26       1.332456113811e-10       1.733898799206e-15       2.308585318071e-13       0.000000000000e+00       1.941991734201e-10       1.892313457899e-11      -1.705819196103e-14 
   27       1.353262748453e-10       1.977074208468e-15       2.379553116799e-13       0.000000000000e+00       1.810629278890e-10       1.773752501740e-11      -1.536142704539e-14 
   28       1.374413824063e-10       2.243367354668e-15       2.439911266451e-13       0.000000000000e+00       1.691473554149e-10       1.665427087216e-11      -1.286751848233e-14 
   29       1.395967278432e-10       2.534828800775e-15       2.490336242911e-13       0.000000000000e+00       1.583066990403e-10       1.566285594773e-11      -1.049038962434e-14 
   30       1.417808604387e-10       2.852803516356e-15       2.531774712110e-13       0.000000000000e+00       1.484164561317e-10       1.475570027438e-11      -8.915727979348e-15 
   31       1.439980001841e-10       3.198176268572e-15       2.565021205948e-13       0.000000000000e+00       1.393696715592e-10       1.392579108736e-11      -8.441645050833e-15 
   32       1.462483540270e-10       3.571733502345e-15       2.590050509130e-13       0.000000000000e+00       1.310741701854e-10       1.316435259912e-11      -8.979252984018e-15 
   33       1.485193511224e-10       3.974229365753e-15       2.606377057109e-13       0.000000000000e+00       1.234500125708e-10       1.246100712404e-11      -1.017072411487e-14 
   34       1.508256896569e-10       4.406267980736e-15       2.612793188396e-13       0.000000000000e+00       1.164276530980e-10       1.181084354512e-11      -1.151220059946e-14 
   35       1.531564573633e-10       4.868313546597e-15       2.607629861519e-13       0.000000000000e+00       1.099463235801e-10       1.120912109213e-11      -1.255163086289e-14 
   36       1.555095572467e-10       5.360881329186e-15       2.589527405258e-13       0.000000000000e+00       1.039527774142e-10       1.065063016072e-11      -1.301192178731e-14 
   37       1.578963064384e-10       5.884759737196e-15       2.557146220630e-13       0.000000000000e+00       9.840015008650e-11       1.012909824796e-11      -1.285238898639e-14 
   38       1.603031863307e-10       6.441042648926e-15       2.509682418748e-13       0.000000000000e+00       9.324705171520e-11       9.642827862334e-12      -1.219951866330e-14 
   39       1.627350565225e-10       7.030923192993e-15       2.447081250277e-13       0.000000000000e+00       8.845684834593e-11       9.190050013888e-12      -1.130864767304e-14 
   40       1.651955256758e-10       7.655480822157e-15       2.369424193199e-13       0.000000000000e+00       8.399699405502e-11       8.766250763385e-12      -1.048886660795e-14 
   41       1.676785921409e-10       8.315603583300e-15       2.277016793286e-13       0.000000000000e+00       7.983851174947e-11       8.370979530756e-12      -9.936175819658e-15 
   42       1.701831747232e-10       9.011981659477e-15       2.170376360957e-13       0.000000000000e+00       7.595550539441e-11       8.000483707770e-12      -9.767330937654e-15 
   43       1.727147198348e-10       9.745170868719e-15       2.049526526874e-13       0.000000000000e+00       7.232480501234e-11       7.655049523602e-12      -9.927106338115e-15 
   44       1.752721166790e-10       1.051563157425e-14       1.914014108706e-13       0.000000000000e+00       6.892560645902e-11       7.330004076819e-12      -1.033006039577e-14 
   45       1.778460697773e-10       1.132368253949e-14       1.763542938185e-13       0.000000000000e+00       6.573919218168e-11       7.025613247525e-12      -1.076962911412e-14 
   46       1.804498583889e-10       1.216955642544e-14       1.597301091933e-13       0.000000000000e+00       6.274869279370e-11       6.739060459194e-12      -1.109074413485e-14 
   47       1.830796343366e-10       1.305350834987e-14       1.414160660743e-13       0.000000000000e+00       5.993885677792e-11       6.468136572047e-12      -1.119767596080e-14 
   48       1.857246816497e-10       1.397584029989e-14       1.213745985144e-13       0.000000000000e+00       5.729589590852e-11       6.211802506247e-12      -1.107517661726e-14 
   49       1.884017896849e-10       1.493690638337e-14       9.956308928106e-14       0.000000000000e+00       5.480728194395e-11       5.969714536814e-12      -1.078026948022e-14 
   50       1.911052377410e-10       1.593709109979e-14       7.593456721658e-14       0.000000000000e+00       5.246163048846e-11       5.741841715182e-12      -1.040020206029e-14 
   51       1.938274724024e-10       1.697673305471e-14       5.051265518754e-14       0.000000000000e+00       5.024859449213e-11       5.526736688022e-12      -1.004149708158e-14 
   52       1.965771016660e-10       1.805604490783e-14       2.333517311529e-14       0.000000000000e+00       4.815871500085e-11       5.322559874200e-12      -9.789670642815e-15 
   53       1.993529436711e-10       1.917512853790e-14      -5.581566244692e-15       0.000000000000e+00       4.618337216401e-11       5.128053444679e-12      -9.690952909633e-15 
   54       2.021563145626e-10       2.033402194207e-14      -3.624007429853e-14       0.000000000000e+00       4.431466032798e-11       4.943574870813e-12      -9.726512543191e-15 
   55       2.049814440139e-10       2.153263185069e-14      -6.862469468908e-14       0.000000000000e+00       4.254534848138e-11       4.769420558148e-12      -9.844863621024e-15 
   56       2.078296420945e-10       2.277073147821e-14      -1.027218583869e-13       0.000000000000e+00       4.086879791042e-11       4.605201486306e-12      -9.975565488263e-15 
   57       2.107135534494e-10       2.404806027923e-14      -1.385973523336e-13       0.000000000000e+00       3.927889756911e-11       4.449695757831e-12      -1.005197383824e-14 
   58       2.136208152759e-10       2.536432057261e-14      -1.762969014901e-13       0.000000000000e+00       3.777003550944e-11       4.300325783461e-12      -1.006922171706e-14 
   59       2.165484622160e-10       2.671916954596e-14      -2.158032607665e-13       0.000000000000e+00       3.633703839130e-11       4.157374319340e-12      -9.984184601680e-15 
   60       2.195110180606e-10       2.811224975902e-14      -2.571433972060e-13       0.000000000000e+00       3.497512797854e-11       4.021075925549e-12      -9.807629738389e-15 
   61       2.225011394853e-10       2.954318290717e-14      -3.003392133129e-13       0.000000000000e+00       3.367989039714e-11       3.890639118181e-12      -9.625422185986e-15 
   62       2.255167067931e-10       3.101157359662e-14      -3.453654704642e-13       0.000000000000e+00       3.244724909465e-11       3.767370382440e-12      -9.435579613212e-15 
   63       2.285635776612e-10       3.251694638684e-14      -3.921945689005e-13       0.000000000000e+00       3.127342103710e-11       3.650227754796e-12      -9.290698862742e-15 
   64       2.316352469407e-10       3.405869316889e-14      -4.407732887663e-13       0.000000000000e+00       3.015490783992e-11       3.538286324157e-12      -9.210882938810e-15 
   65       2.347377259453e-10       3.563616031904e-14      -4.910733605967e-13       0.000000000000e+00       2.908845374501e-11       3.431052371794e-12      -9.177030561546e-15 
   66       2.378752654407e-10       3.724864588401e-14      -5.431123554040e-13       0.000000000000e+00       2.807104276948e-11       3.327892766670e-12      -9.189043994667e-15 
   67       2.410356870434e-10       3.889532027220e-14      -5.968519988342e-13       0.000000000000e+00       2.709986163855e-11       3.229127356373e-12      -9.203659447350e-15 
   68       2.442242299834e-10       4.057528165638e-14      -6.522507212331e-13       0.000000000000e+00       2.617229969730e-11       3.134853266170e-12      -9.197171333918e-15 
   69       2.474495423281e-10       4.228758348264e-14      -7.093353842589e-13       0.000000000000e+00       2.528591672215e-11       3.044653935609e-12      -9.169220497953e-15 
   70       2.507021334594e-10       4.403121617218e-14      -7.681039830838e-13       0.000000000000e+00       2.443844238018e-11       2.958680310896e-12      -9.077733791050e-15 
   71       2.539838111458e-10       4.580517521868e-14      -8.285281708773e-13       0.000000000000e+00       2.362775563959e-11       2.875778052161e-12      -8.982860964300e-15 
   72       2.573018091504e-10       4.760843179128e-14      -8.906083130182e-13       0.000000000000e+00       2.285187209613e-11       2.796078080520e-12      -8.862442903677e-15 
   73       2.606473500072e-10       4.943984185634e-14      -9.542981294332e-13       0.000000000000e+00       2.210894035745e-11       2.719525901172e-12      -8.728490052987e-15 
   74       2.640205570086e-10       5.129822102608e-14      -1.019524213705e-12       0.000000000000e+00       2.139722726305e-11       2.645744752899e-12      -8.637422888200e-15 
   75       2.674318093544e-10       5.318238561405e-14      -1.086275755200e-12       0.000000000000e+00       2.071510410862e-11       2.575034228036e-12      -8.567364228259e-15 
   76       2.708751906498e-10       5.509105135104e-14      -1.154528131847e-12       0.000000000000e+00       2.006104763214e-11       2.507345455477e-12      -8.509514364204e-15 
   77       2.743443990233e-10       5.702285349585e-14      -1.224198843087e-12       0.000000000000e+00       1.943363093548e-11       2.442416133475e-12      -8.458188114330e-15 
   78       2.778494562367e-10       5.897643081952e-14      -1.295259516198e-12       0.000000000000e+00       1.883148262546e-11       2.379801647332e-12      -8.430379669817e-15 
   79       2.813876212415e-10       6.095030470888e-14      -1.367671903066e-12       0.000000000000e+00       1.825343301267e-11       2.319364938156e-12      -8.404723721772e-15 
   80       2.849532817159e-10       6.294293107664e-14      -1.441393239687e-12       0.000000000000e+00       1.769818603654e-11       2.261048261709e-12      -8.352443004376e-15 
   81       2.885509394932e-10       6.495279566672e-14      -1.516400474950e-12       0.000000000000e+00       1.716470670648e-11       2.204805190600e-12      -8.273957334876e-15 
   82       2.921856790589e-10       6.697834579079e-14      -1.592668413017e-12       0.000000000000e+00       1.665188470054e-11       2.150579201395e-12      -8.179057490145e-15 
   83       2.958530439145e-10       6.901795670645e-14      -1.670139685326e-12       0.000000000000e+00       1.615879448230e-11       2.098329411182e-12      -8.082628589018e-15 
   84       2.995477891884e-10       7.106996111973e-14      -1.748752135949e-12       0.000000000000e+00       1.568443818235e-11       2.047996046502e-12      -7.998204815454e-15 
   85       3.032739817665e-10       7.313272057459e-14      -1.828466985051e-12       0.000000000000e+00       1.522799373776e-11       1.999484427687e-12      -7.924739461243e-15 
   86       3.070362388059e-10       7.520455625641e-14      -1.909242245371e-12       0.000000000000e+00       1.478857990851e-11       1.952676742915e-12      -7.858086479300e-15 
   87       3.108305094066e-10       7.728369230245e-14      -1.990997153051e-12       0.000000000000e+00       1.436546224018e-11       1.907464550646e-12      -7.798329999241e-15 
   88       3.146520898381e-10       7.936831135157e-14      -2.073649469019e-12       0.000000000000e+00       1.395785377593e-11       1.863738711893e-12      -7.745545501987e-15 
   89       3.185048429210e-10       8.145664633656e-14      -2.157164338941e-12       0.000000000000e+00       1.356509636428e-11       1.821437749800e-12      -7.695022652245e-15 
   90       3.223930350931e-10       8.354689817993e-14      -2.241510018919e-12       0.000000000000e+00       1.318648677227e-11       1.780504792937e-12      -7.641222777761e-15 
   91       3.263125488439e-10       8.563716816841e-14      -2.326612768501e-12       0.000000000000e+00       1.282143493832e-11       1.740893939277e-12      -7.581605251215e-15 
   92       3.302586542455e-10       8.772552650022e-14      -2.412394416184e-12       0.000000000000e+00       1.246931174050e-11       1.702554152546e-12      -7.515012589315e-15 
   93       3.342348584608e-10       8.981012653007e-14      -2.498812379636e-12       0.000000000000e+00       1.212958673358e-11       1.665439366751e-12      -7.443105591095e-15 
   94       3.382451943795e-10       9.188910617382e-14      -2.585827128508e-12       0.000000000000e+00       1.180169536576e-11       1.629498347977e-12      -7.368505003461e-15 
   95       3.422862629505e-10       9.396051769779e-14      -2.673371056735e-12       0.000000000000e+00       1.148515986295e-11       1.594687770992e-12      -7.294317021669e-15 
   96       3.463537680805e-10       9.602238703091e-14      -2.761368136174e-12       0.000000000000e+00       1.117947270643e-11       1.560960512496e-12      -7.223375332949e-15 
   97       3.504490976405e-10       9.807280512702e-14      -2.849742981324e-12       0.000000000000e+00       1.088420276329e-11       1.528275885013e-12      -7.156313595664e-15 
   98       3.545744962477e-10       1.001098614774e-13      -2.938423422008e-12       0.000000000000e+00       1.059889284101e-11       1.496588409635e-12      -7.092794111174e-15 
   99       3.587294147718e-10       1.021316234080e-13      -3.027354416437e-12       0.000000000000e+00       1.032315304972e-11       1.465853199996e-12      -7.030883895281e-15 
  100       3.629124351297e-10       1.041361368947e-13      -3.116479572581e-12       0.000000000000e+00       1.005657071538e-11       1.436029937242e-12      -6.969029912251e-15 
  101       3.671220836889e-10       1.061214347803e-13      -3.205718003712e-12       0.000000000000e+00       9.798793155040e-12       1.407122545078e-12      -6.909439607180e-15 
  102       3.713571347873e-10       1.080855485750e-13      -3.294985916366e-12       0.000000000000e+00       9.549447467878e-12       1.379125020744e-12      -6.853816803498e-15 
  103       3.756179691668e-10       1.100265653108e-13      -3.384219420349e-12       0.000000000000e+00       9.308212576596e-12       1.351955956737e-12      -6.797208970524e-15 
  104       3.799050661444e-10       1.119425799518e-13      -3.473358517526e-12       0.000000000000e+00       9.074750160587e-12       1.325517120808e-12      -6.733704066611e-15 
  105       3.842176856732e-10       1.138316866109e-13      -3.562338040287e-12       0.000000000000e+00       8.848772030582e-12       1.299752982200e-12      -6.661724252779e-15 
  106       3.885547399223e-10       1.156919806208e-13      -3.651089410826e-12       0.000000000000e+00       8.629973860051e-12       1.274636129201e-12      -6.582819580349e-15 
  107       3.929154062808e-10       1.175215838810e-13      -3.739536673134e-12       0.000000000000e+00       8.418087001658e-12       1.250229112628e-12      -6.506884486480e-15 
