# dimensionless total lensed [l(l+1)/2pi] C_l's
# for l=2 to 2500, i.e. number of multipoles equal to 2499
#
# -> if you prefer output in CAMB/HealPix/LensPix units/order, set 'format' to 'camb' in input file
# -> if you don't want to see such a header, set 'headers' to 'no' in input file
# -> for CMB lensing (phi), these are C_l^phi-phi for the lensing potential.
#    Remember the conversion factors:
#    C_l^dd (deflection) = l(l+1) C_l^phi-phi
#    C_l^gg (shear/convergence) = 1/4 (l(l+1))^2 C_l^phi-phi
#
# 1:l     2:TT                     3:EE                     4:TE                     5:BB                     6:phiphi                 7:TPhi                   8:Ephi               
    2       1.366944914750e-10       4.152209497411e-15       3.524065438430e-13       2.490002416779e-19       8.356940929370e-09       4.474437551701e-10      -1.831042331813e-12 
    3       1.294728118663e-10       5.337827231528e-15       3.954623073651e-13       4.976285151407e-19       5.077442680251e-09       3.160628834502e-10      -1.390087008332e-12 
    4       1.226221396476e-10       4.636541519029e-15       3.705372325330e-13       8.290241713841e-19       3.508656896939e-09       2.388844634552e-10      -9.123354120243e-13 
    5       1.175153851085e-10       3.103748549324e-15       3.155934366234e-13       1.243371146306e-18       2.606528964141e-09       1.883918905204e-10      -5.081062538759e-13 
    6       1.140111260358e-10       1.740544142808e-15       2.543096018091e-13       1.740843813625e-18       2.028630136459e-09       1.530595428522e-10      -2.095826836956e-13 
    7       1.117623048970e-10       9.406237521393e-16       1.997375766335e-13       2.321575396088e-18       1.631565032382e-09       1.271875382259e-10      -1.849110165730e-14 
    8       1.104594539768e-10       6.051987149443e-16       1.576869353201e-13       2.985692741389e-18       1.344777266899e-09       1.076107337803e-10       7.965708787038e-14 
    9       1.098607373473e-10       4.856459057543e-16       1.294853867218e-13       3.733344583450e-18       1.129714839273e-09       9.241191806450e-11       1.077705301331e-13 
   10       1.097899677203e-10       4.154451284522e-16       1.138032098792e-13       4.564704041282e-18       9.636420340222e-10       8.035412749490e-11       9.140071567850e-14 
   11       1.101168363315e-10       3.509662718138e-16       1.079917657028e-13       5.479959157930e-18       8.275622507101e-10       7.139505738065e-11       5.447380738950e-14 
   12       1.107528925873e-10       3.071345925528e-16       1.090649811116e-13       6.479306940382e-18       7.229758614942e-10       6.321643253179e-11       1.472129574944e-14 
   13       1.116291254110e-10       2.953827278257e-16       1.143380060368e-13       7.562950923849e-18       6.371301878315e-10       5.639728448874e-11      -1.609604989512e-14 
   14       1.127005560624e-10       3.081741467973e-16       1.217554957174e-13       8.731101986779e-18       5.657180666052e-10       5.063237339781e-11      -3.307093735660e-14 
   15       1.139301316574e-10       3.336804438960e-16       1.299830826347e-13       9.983975590672e-18       5.056209914679e-10       4.569874081922e-11      -3.664312200512e-14 
   16       1.152941176322e-10       3.690914826263e-16       1.383506350210e-13       1.132178871984e-17       4.545320577632e-10       4.144519983789e-11      -3.060393625648e-14 
   17       1.167720008543e-10       4.197221243781e-16       1.466972595673e-13       1.274475809824e-17       4.107120471764e-10       3.774837357062e-11      -2.005237997191e-14 
   18       1.183454723332e-10       4.910032841278e-16       1.551718022927e-13       1.425309951815e-17       3.728279598523e-10       3.451942831187e-11      -9.650435526059e-15 
   19       1.200043513192e-10       5.839545786878e-16       1.640143645082e-13       1.584702736022e-17       3.398430136497e-10       3.168572774789e-11      -2.560742516216e-15 
   20       1.217337354541e-10       6.967047536212e-16       1.733890442643e-13       1.752675371715e-17       3.109401521168e-10       2.918446543886e-11      -6.638047085598e-17 
   21       1.235310848030e-10       8.278081756756e-16       1.832855765065e-13       1.929248717390e-17       2.854678474368e-10       2.697410179838e-11      -1.723973484155e-15 
   22       1.253853458862e-10       9.773430333991e-16       1.935026547650e-13       2.114443158689e-17       2.629010249118e-10       2.500851192799e-11      -6.000731296611e-15 
   23       1.272915915074e-10       1.145786286321e-15       2.037136517403e-13       2.308278501915e-17       2.428124442284e-10       2.324758519293e-11      -1.098078524501e-14 
   24       1.292477839838e-10       1.333001453755e-15       2.135408951632e-13       2.510773875513e-17       2.248513979896e-10       2.165982196898e-11      -1.501178847391e-14 
   25       1.312471117930e-10       1.538656616188e-15       2.226513858885e-13       2.721947628813e-17       2.087276247204e-10       2.022457475867e-11      -1.710158033264e-14 
   26       1.332917864129e-10       1.763304802685e-15       2.308110305785e-13       2.941817234367e-17       1.941991734201e-10       1.892313457899e-11      -1.705819196103e-14 
   27       1.353755864872e-10       2.008760219502e-15       2.379011273685e-13       3.170399208329e-17       1.810629278890e-10       1.773752501740e-11      -1.536142704539e-14 
   28       1.374939075878e-10       2.277418869142e-15       2.439297540682e-13       3.407709058190e-17       1.691473554149e-10       1.665427087216e-11      -1.286751848233e-14 
   29       1.396525398080e-10       2.571330864111e-15       2.489645322358e-13       3.653761251370e-17       1.583066990403e-10       1.566285594773e-11      -1.049038962434e-14 
   30       1.418400324063e-10       2.891840771250e-15       2.531000920494e-13       3.908569193907e-17       1.484164561317e-10       1.475570027438e-11      -8.915727979348e-15 
   31       1.440606021209e-10       3.239832986477e-15       2.564158485105e-13       4.172145210486e-17       1.393696715592e-10       1.392579108736e-11      -8.441645050833e-15 
   32       1.463144534650e-10       3.616093546548e-15       2.589092590774e-13       4.444500526796e-17       1.310741701854e-10       1.316435259912e-11      -8.979252984018e-15 
   33       1.485890167015e-10       4.021376138463e-15       2.605317602063e-13       4.725645255279e-17       1.234500125708e-10       1.246100712404e-11      -1.017072411487e-14 
   34       1.508989838154e-10       4.456284405485e-15       2.611626045952e-13       5.015588386604e-17       1.164276530980e-10       1.181084354512e-11      -1.151220059946e-14 
   35       1.532334434357e-10       4.921282057207e-15       2.606349311032e-13       5.314337784174e-17       1.099463235801e-10       1.120912109213e-11      -1.255163086289e-14 
   36       1.555902972709e-10       5.416883801456e-15       2.588128184550e-13       5.621900183634e-17       1.039527774142e-10       1.065063016072e-11      -1.301192178731e-14 
   37       1.579808565566e-10       5.943877330035e-15       2.555623632055e-13       5.938281198807e-17       9.840015008650e-11       1.012909824796e-11      -1.285238898639e-14 
   38       1.603916052089e-10       6.503355601672e-15       2.508032243614e-13       6.263485338892e-17       9.324705171520e-11       9.642827862334e-12      -1.219951866330e-14 
   39       1.628273991819e-10       7.096510670094e-15       2.445299530673e-13       6.597516036205e-17       8.845684834593e-11       9.190050013888e-12      -1.130864767304e-14 
   40       1.652918435631e-10       7.724420832230e-15       2.367507197207e-13       6.940375684193e-17       8.399699405502e-11       8.766250763385e-12      -1.048886660795e-14 
   41       1.677789370845e-10       8.387972938392e-15       2.274960930142e-13       7.292065680107e-17       7.983851174947e-11       8.370979530756e-12      -9.936175819658e-15 
   42       1.702875971568e-10       9.087855950738e-15       2.168178081669e-13       7.652586472886e-17       7.595550539441e-11       8.000483707770e-12      -9.767330937654e-15 
   43       1.728232657032e-10       9.824624426117e-15       2.047182545507e-13       8.021937612176e-17       7.232480501234e-11       7.655049523602e-12      -9.927106338115e-15 
   44       1.753848303521e-10       1.059873741624e-14       1.911521669246e-13       8.400117801277e-17       6.892560645902e-11       7.330004076819e-12      -1.033006039577e-14 
   45       1.779629983426e-10       1.141051235290e-14       1.760899805963e-13       8.787124951400e-17       6.573919218168e-11       7.025613247525e-12      -1.076962911412e-14 
   46       1.805710401517e-10       1.226018052631e-14       1.594505900122e-13       9.182956239120e-17       6.274869279370e-11       6.739060459194e-12      -1.109074413485e-14 
   47       1.832051074054e-10       1.314799558643e-14       1.411213201918e-13       9.587608165023e-17       5.993885677792e-11       6.468136572047e-12      -1.119767596080e-14 
   48       1.858544883308e-10       1.407425793257e-14       1.210646905461e-13       1.000107661777e-16       5.729589590852e-11       6.211802506247e-12      -1.107517661726e-14 
   49       1.885359604545e-10       1.503931995073e-14       9.923817956998e-14       1.042335694113e-16       5.480728194395e-11       5.969714536814e-12      -1.078026948022e-14 
   50       1.912438040801e-10       1.604356428748e-14       7.559492272122e-14       1.085444400695e-16       5.246163048846e-11       5.741841715182e-12      -1.040020206029e-14 
   51       1.939704687096e-10       1.708732760834e-14       5.015861040039e-14       1.129433229073e-16       5.024859449213e-11       5.526736688022e-12      -1.004149708158e-14 
   52       1.967245546676e-10       1.817082060397e-14       2.296712142510e-14       1.174301595174e-16       4.815871500085e-11       5.322559874200e-12      -9.789670642815e-15 
   53       1.995048784527e-10       1.929414315561e-14      -5.963155941907e-15       1.220048891240e-16       4.618337216401e-11       5.128053444679e-12      -9.690952909633e-15 
   54       2.023127530368e-10       2.045733120955e-14      -3.663464030077e-14       1.266674494066e-16       4.431466032798e-11       4.943574870813e-12      -9.726512543191e-15 
   55       2.051424102631e-10       2.166028944981e-14      -6.903159186442e-14       1.314177773110e-16       4.254534848138e-11       4.769420558148e-12      -9.844863621024e-15 
   56       2.079951570455e-10       2.290278906536e-14      -1.031403524018e-13       1.362558098800e-16       4.086879791042e-11       4.605201486306e-12      -9.975565488263e-15 
   57       2.108836253210e-10       2.418456743709e-14      -1.390265484869e-13       1.411814850585e-16       3.927889756911e-11       4.449695757831e-12      -1.005197383824e-14 
   58       2.137954598825e-10       2.550532476560e-14      -1.767357491064e-13       1.461947425235e-16       3.777003550944e-11       4.300325783461e-12      -1.006922171706e-14 
   59       2.167276959096e-10       2.686471608516e-14      -2.162505991618e-13       1.512955244998e-16       3.633703839130e-11       4.157374319340e-12      -9.984184601680e-15 
   60       2.196948417236e-10       2.826238174248e-14      -2.575979109284e-13       1.564837765998e-16       3.497512797854e-11       4.021075925549e-12      -9.807629738389e-15 
   61       2.226895576804e-10       2.969794116451e-14      -3.007994273111e-13       1.617594486476e-16       3.367989039714e-11       3.890639118181e-12      -9.625422185986e-15 
   62       2.257097236368e-10       3.117099663134e-14      -3.458297884713e-13       1.671224955288e-16       3.244724909465e-11       3.767370382440e-12      -9.435579613212e-15 
   63       2.287611888902e-10       3.268107038504e-14      -3.926612740063e-13       1.725728780208e-16       3.127342103710e-11       3.650227754796e-12      -9.290698862742e-15 
   64       2.318374519729e-10       3.422755207432e-14      -4.412405674372e-13       1.781105636352e-16       3.015490783992e-11       3.538286324157e-12      -9.210882938810e-15 
   65       2.349445150817e-10       3.580978583201e-14      -4.915392747134e-13       1.837355274199e-16       2.908845374501e-11       3.431052371794e-12      -9.177030561546e-15 
   66       2.380866211469e-10       3.742706746949e-14      -5.435747875413e-13       1.894477527727e-16       2.807104276948e-11       3.327892766670e-12      -9.189043994667e-15 
   67       2.412516023393e-10       3.907856526713e-14      -5.973087079929e-13       1.952472322153e-16       2.709986163855e-11       3.229127356373e-12      -9.203659447350e-15 
   68       2.444446891945e-10       4.076337533250e-14      -6.526993447274e-13       2.011339681686e-16       2.617229969730e-11       3.134853266170e-12      -9.197171333918e-15 
   69       2.476745160661e-10       4.248054908635e-14      -7.097733514115e-13       2.071079736784e-16       2.528591672215e-11       3.044653935609e-12      -9.169220497953e-15 
   70       2.509316003082e-10       4.422907499362e-14      -7.685285398683e-13       2.131692731521e-16       2.443844238018e-11       2.958680310896e-12      -9.077733791050e-15 
   71       2.542177443184e-10       4.600794658314e-14      -8.289364070659e-13       2.193179030464e-16       2.362775563959e-11       2.875778052161e-12      -8.982860964300e-15 
   72       2.575401689121e-10       4.781613309098e-14      -8.909971210501e-13       2.255539125651e-16       2.285187209613e-11       2.796078080520e-12      -8.862442903677e-15 
   73       2.608901045511e-10       4.965248871282e-14      -9.546642613623e-13       2.318773643152e-16       2.210894035745e-11       2.719525901172e-12      -8.728490052987e-15 
   74       2.642676710416e-10       5.151582736883e-14      -1.019864318266e-12       2.382883349570e-16       2.139722726305e-11       2.645744752899e-12      -8.637422888200e-15 
   75       2.676832290742e-10       5.340496370812e-14      -1.086586289300e-12       2.447869157994e-16       2.071510410862e-11       2.575034228036e-12      -8.567364228259e-15 
   76       2.711308664906e-10       5.531861197793e-14      -1.154805374688e-12       2.513732134099e-16       2.006104763214e-11       2.507345455477e-12      -8.509514364204e-15 
   77       2.746042870705e-10       5.725540612496e-14      -1.224438980298e-12       2.580473501499e-16       1.943363093548e-11       2.442416133475e-12      -8.458188114330e-15 
   78       2.781134932402e-10       5.921398366129e-14      -1.295458559793e-12       2.648094646131e-16       1.883148262546e-11       2.379801647332e-12      -8.430379669817e-15 
   79       2.816557444273e-10       6.119286499598e-14      -1.367825703931e-12       2.716597126099e-16       1.825343301267e-11       2.319364938156e-12      -8.404723721772e-15 
   80       2.852254327320e-10       6.319050522033e-14      -1.441497489899e-12       2.785982665920e-16       1.769818603654e-11       2.261048261709e-12      -8.352443004376e-15 
   81       2.888270479872e-10       6.520538934090e-14      -1.516450671913e-12       2.856253172316e-16       1.716470670648e-11       2.204805190600e-12      -8.273957334876e-15 
   82       2.924656616299e-10       6.723596407648e-14      -1.592659860394e-12       2.927410729730e-16       1.665188470054e-11       2.150579201395e-12      -8.179057490145e-15 
   83       2.961368205936e-10       6.928060436235e-14      -1.670067547492e-12       2.999457609117e-16       1.615879448230e-11       2.098329411182e-12      -8.082628589018e-15 
   84       2.998352843582e-10       7.133764275397e-14      -1.748611443802e-12       3.072396267635e-16       1.568443818235e-11       2.047996046502e-12      -7.998204815454e-15 
   85       3.035651074843e-10       7.340544076115e-14      -1.828252593857e-12       3.146229353398e-16       1.522799373776e-11       1.999484427687e-12      -7.924739461243e-15 
   86       3.073308937206e-10       7.548231973218e-14      -1.908948840816e-12       3.220959708248e-16       1.478857990851e-11       1.952676742915e-12      -7.858086479300e-15 
   87       3.111285951938e-10       7.756650434786e-14      -1.990619328752e-12       3.296590367564e-16       1.436546224018e-11       1.907464550646e-12      -7.798329999241e-15 
   88       3.149535119950e-10       7.965617801492e-14      -2.073181728714e-12       3.373124566518e-16       1.395785377593e-11       1.863738711893e-12      -7.745545501987e-15 
   89       3.188094938479e-10       8.174957455483e-14      -2.156601003789e-12       3.450565734786e-16       1.356509636428e-11       1.821437749800e-12      -7.695022652245e-15 
   90       3.227007932125e-10       8.384489601604e-14      -2.240845222005e-12       3.528917506489e-16       1.318648677227e-11       1.780504792937e-12      -7.641222777761e-15 
   91       3.266232960565e-10       8.594024526779e-14      -2.325840542994e-12       3.608183709742e-16       1.282143493832e-11       1.740893939277e-12      -7.581605251215e-15 
   92       3.305722767916e-10       8.803369435059e-14      -2.411508704257e-12       3.688368380297e-16       1.246931174050e-11       1.702554152546e-12      -7.515012589315e-15 
   93       3.345512291566e-10       9.012339855251e-14      -2.497806958236e-12       3.769475745618e-16       1.212958673358e-11       1.665439366751e-12      -7.443105591095e-15 
   94       3.385641713699e-10       9.220749797868e-14      -2.584695603990e-12       3.851510242533e-16       1.180169536576e-11       1.629498347977e-12      -7.368505003461e-15 
   95       3.426077064349e-10       9.428404757230e-14      -2.672106928699e-12       3.934476495970e-16       1.148515986295e-11       1.594687770992e-12      -7.294317021669e-15 
   96       3.466775420375e-10       9.635107624381e-14      -2.759964818803e-12       4.018379340501e-16       1.117947270643e-11       1.560960512496e-12      -7.223375332949e-15 
   97       3.507750568654e-10       9.840667809791e-14      -2.848193810964e-12       4.103223793462e-16       1.088420276329e-11       1.528275885013e-12      -7.156313595664e-15 
   98       3.549024841494e-10       1.004489460509e-13      -2.936721652665e-12       4.189015080627e-16       1.059889284101e-11       1.496588409635e-12      -7.092794111174e-15 
   99       3.590592697444e-10       1.024759512423e-13      -3.025493179688e-12       4.275758603849e-16       1.032315304972e-11       1.465853199996e-12      -7.030883895281e-15 
  100       3.632439924491e-10       1.044857438104e-13      -3.114451884453e-12       4.363459970781e-16       1.005657071538e-11       1.436029937242e-12      -6.969029912251e-15 
  101       3.674551762671e-10       1.064763611693e-13      -3.203516834295e-12       4.452124956905e-16       9.798793155040e-12       1.407122545078e-12      -6.909439607180e-15 
  102       3.716915923995e-10       1.084458397266e-13      -3.292604201632e-12       4.541759539368e-16       9.549447467878e-12       1.379125020744e-12      -6.853816803498e-15 
  103       3.759536140265e-10       1.103922716514e-13      -3.381650016499e-12       4.632369853335e-16       9.308212576596e-12       1.351955956737e-12      -6.797208970524e-15 
  104       3.802417123959e-10       1.123137573693e-13      -3.470594195148e-12       4.723962230067e-16       9.074750160587e-12       1.325517120808e-12      -6.733704066611e-15 
  105       3.845551427489e-10       1.142083968632e-13      -3.559371502009e-12       4.816543147769e-16       8.848772030582e-12       1.299752982200e-12      -6.661724252779e-15 
  106       3.888928133264e-10       1.160742917032e-13      -3.647913305832e-12       4.910119273785e-16       8.629973860051e-12       1.274636129201e-12      -6.582819580349e-15 
  107       3.932538970677e-10       1.179095703824e-13      -3.736143627209e-12       5.004697409904e-16       8.418087001658e-12       1.250229112628e-12      -6.506884486480e-15 
